2266
2237
2194
2159
2134
2111
2090
2064
2045
2024
2010
2000
2000
1990
1987
1983
1975
1972
1981
1968
1960
1965
1968
1969
1975
1981
1982
1991
2010
2012
2018
2025
2014
2011
2014
2017
2008
2006
1996
1975
1966
1995
1993
1986
1991
1988
1984
1990
1988
2000
2011
2034
2049
2061
2074
2092
2114
2133
2132
2120
2108
2082
2045
2001
1996
1991
1951
1940
1925
1911
1918
1922
1910
1905
1972
2105
2201
2373
2758
2897
2595
2285
2005
1790
1681
1732
1846
1949
1989
1990
1975
1976
1985
1994
1995
1986
1986
2005
2012
2004
2005
2021
2016
2028
2036
2036
2039
2063
2067
2091
2109
2129
2141
2153
2164
2182
2217
2232
2257
2279
2292
2296
2308
2336
2340
2335
2327
2306
2301
2258
2197
2186
2159
2131
2098
2076
2043
2021
2006
1975
1971
1981
1969
1960
1958
1954
1955
1945
1949
1948
1942
1943
1922
1937
1938
1921
1918
1936
1956
1954
1941
1937
1929
1927
1917
1902
1911
1908
1889
1894
1892
1894
1893
1884
1901
1889
1886
1898
1929
1946
1968
1976
1992
1995
2039
2067
2057
2065
2039
2005
1986
1975
1949
1931
1927
1904
1869
1873
1879
1862
1884
1887
1899
1954
2069
2151
2372
2764
2826
2516
2203
1950
1691
1630
1739
1855
1900
1928
1929
1935
1935
1950
1946
1937
1955
1966
1946
1961
1957
1969
1978
1990
1988
1996
2009
2012
2023
2026
2041
2072
2086
2098
2112
2125
2134
2171
2204
2223
2252
2257
2280
2302
2321
2327
2324
2311
2279
2265
2243
2208
2180
2142
2097
2079
2065
2028
2018
2007
2000
1993
1973
1972
1990
1990
1991
1989
1983
1984
1986
1966
1977
2006
2005
1994
1999
2001
1993
1996
1994
1995
1996
1993
1999
2007
2011
2005
2012
2020
2013
2018
2000
2026
2040
2034
2041
2034
2050
2073
2103
2112
2117
2118
2141
2173
2176
2164
2141
2110
2101
2076
2075
2043
2007
2002
1978
1954
1949
1953
1953
1942
1930
1949
2056
2138
2285
2628
2872
2631
2348
2067
1814
1662
1725
1849
1945
1972
1971
1968
1983
1985
1977
1985
1990
1999
2008
1999
1993
2009
2024
2019
2021
2033
2050
2060
2057
2070
2087
2111
2122
2134
2151
2163
2177
2201
2233
2257
2267
2290
2303
2328
2339
2350
2347
2340
2326
2297
2274
2247
2207
2175
2131
2108
2082
2042
2022
2032
2011
1990
1988
1979
1978
1974
1979
1989
1979
1974
1979
1975
1988
1988
1983
1981
1983
1974
1986
1996
1989
1997
1984
1974
1977
1978
1973
1972
1967
1971
1965
1967
1967
1964
1954
1947
1959
1987
2003
2018
2030
2047
2068
2084
2127
2112
2108
2107
2077
2056
2030
2015
1985
1980
1955
1922
1911
1903
1908
1892
1894
1901
1951
2064
2152
2364
2750
2771
2489
2216
1969
1722
1656
1752
1868
1936
1951
1943
1948
1956
1971
1966
1964
1982
1984
1988
2005
1996
1988
2008
1992
2014
2039
2041
2043
2055
2054
2064
2080
2083
2098
2120
2140
2171
2178
2204
2230
2245
2254
2272
2287
2298
2316
2307
2289
2277
2256
2213
2174
2145
2112
2079
2066
2028
1993
1989
1987
1963
1953
1946
1942
1926
1937
1948
1939
1936
1954
1944
1946
1951
1948
1955
1965
1954
1940
1969
1977
1969
1952
1963
1966
1958
1944
1948
1940
1956
1948
1947
1943
1944
1950
1942
1952
1966
1993
1993
2042
2048
2060
2060
2119
2148
2135
2126
2109
2103
2075
2057
2052
2030
2008
1971
1935
1934
1919
1927
1924
1913
1916
1963
2058
2133
2371
2738
2728
2445
2186
1978
1731
1689
1763
1896
1955
1977
1975
1990
1998
1994
1990
1994
2000
2004
2010
2021
2022
2029
2045
2045
2047
2057
2067
2099
2116
2123
2136
2165
2175
2182
2199
2219
2226
2233
2256
2289
2303
2310
2325
2333
2331
2345
2349
2336
2326
2294
2256
2217
2192
2152
2120
2088
2078
2054
2033
2006
1987
1997
1978
1966
1964
1968
1962
1958
1966
1972
1961
1964
1972
1978
1984
1993
1985
1984
1982
2003
2000
1993
1997
1991
1999
1996
1998
1999
1995
1988
2005
2005
2004
2009
2028
2054
2058
2064
2069
2096
2104
2124
2148
2132
2132
2101
2095
2070
2042
2028
2016
1981
1944
1917
1919
1935
1922
1919
1922
1926
1995
2100
2210
2507
2835
2679
2409
2158
1939
1723
1725
1831
1933
1966
1995
1998
1984
1988
1988
1991
1990
2017
2025
2026
2032
2029
2027
2041
2050
2044
2049
2062
2072
2088
2098
2104
2128
2127
2143
2171
2203
2207
2229
2254
2275
2292
2289
2317
2339
2342
2349
2347
2329
2299
2271
2244
2215
2176
2154
2118
2085
2071
2056
2035
2024
2008
2007
2014
2013
2006
2008
2002
2005
2004
2005
2009
2012
2020
2025
2031
2014
2037
2039
2033
2030
2028
2013
2014
2029
2032
2022
2021
2030
2033
2034
2030
2029
2020
2036
2054
2058
2085
2095
2085
2084
2121
2158
2146
2138
2126
2103
2088
2044
2036
2033
2016
1984
1946
1941
1949
1935
1932
1929
1921
1951
2065
2145
2350
2732
2764
2488
2249
2024
1762
1685
1757
1885
1948
1977
1968
1969
1976
1983
1981
1995
1999
1999
2005
2000
1993
2000
2002
2009
2010
2033
2048
2041
2051
2056
2066
2084
2110
2126
2140
2166
2184
2198
2215
2230
2247
2260
2291
2306
2312
2314
2293
2269
2262
2244
2207
2173
2136
2120
2092
2057
2018
1997
1965
1947
1951
1942
1942
1947
1929
1918
1931
1914
1903
1929
1937
1934
1935
1929
1916
1941
1941
1950
1944
1948
1941
1939
1931
1943
1941
1949
1933
1919
1943
1940
1932
1931
1937
1960
1982
2001
2015
2013
2022
2063
2086
2057
2091
2087
2062
2031
2005
1993
1977
1968
1929
1901
1901
1898
1897
1895
1899
1886
1935
2075
2152
2380
2788
2817
2503
2238
1994
1749
1668
1760
1875
1925
1940
1945
1952
1973
1976
1974
1967
1974
1974
1970
1976
1978
1981
1980
1982
1964
2016
2025
2042
2058
2065
2062
2068
2084
2100
2104
2111
2143
2164
2164
2202
2228
2218
2231
2269
2274
2272
2261
2254
2222
2189
2148
2102
2070
2038
2029
2000
1970
1929
1919
1928
1914
1902
1895
1898
1884
1887
1888
1875
1857
1870
1878
1862
1869
1886
1882
1867
1878
1886
1882
1886
1872
1889
1887
1890
1898
1886
1897
1884
1892
1884
1884
1891
1922
1934
1953
1968
1977
1972
1990
2040
2038
2033
2020
2003
1970
1949
1921
1918
1910
1878
1845
1839
1838
1842
1831
1847
1850
1869
1966
2065
2222
2608
2782
2520
2258
1996
1728
1610
1675
1802
1889
1894
1894
1902
1904
1884
1902
1912
1916
1922
1944
1930
1955
1955
1954
1959
1982
1985
1985
1997
2013
2017
2026
2059
2072
2092
2107
2134
2144
2167
2192
2221
2247
2267
2278
2303
2319
2318
2312
2312
2293
2260
2229
2191
2144
2124
2095
2062
2036
2008
1994
1971
1963
1955
1961
1952
1954
1948
1942
1961
1958
1957
1966
1975
1958
1952
1958
1964
1963
1966
1977
1961
1957
1967
1976
1959
1962
1964
1963
1958
1959
1965
1969
1965
1968
1997
2039
2056
2063
2070
2089
2104
2144
2160
2143
2132
2113
2096
2065
2040
2033
2017
1987
1971
1952
1954
1964
1972
1975
1958
1969
2069
2173
2276
2598
2884
2678
2409
2139
1903
1710
1732
1845
1931
1955
1960
1958
1969
1973
1959
1978
1973
1974
1991
2000
1991
2007
2016
2034
2023
2037
2042
2043
2044
2052
2058
2071
2095
2098
2112
2133
2136
2160
2183
2207
2222
2244
2265
2279
2279
2299
2295
2281
2273
2260
2232
2198
2166
2132
2109
2086
2053
2024
2004
1976
1952
1938
1955
1951
1938
1929
1935
1933
1942
1937
1933
1935
1951
1959
1959
1952
1958
1978
1993
1989
1984
1968
1984
1999
2004
1982
1974
1978
1973
1963
1955
1957
1960
1976
1998
2014
2025
2029
2054
2095
2094
2077
2071
2056
2058
2037
2003
1984
1959
1940
1909
1885
1894
1890
1890
1883
1882
1895
1994
2106
2222
2553
2905
2693
2390
2078
1851
1657
1674
1780
1882
1942
1942
1933
1924
1941
1954
1959
1957
1956
1968
1977
1977
1963
1978
1996
1992
2002
2021
2035
2035
2052
2070
2074
2085
2103
2118
2137
2168
2187
2193
2214
2221
2235
2254
2292
2307
2314
2311
2298
2260
2250
2219
2187
2157
2120
2087
2063
2033
2013
1991
1953
1936
1945
1947
1929
1927
1922
1922
1911
1906
1908
1918
1909
1913
1912
1923
1924
1927
1928
1912
1938
1940
1924
1915
1899
1896
1881
1883
1891
1891
1888
1887
1876
1874
1876
1905
1929
1948
1954
1958
1981
1990
2022
2063
2061
2050
2033
2004
1994
1976
1963
1943
1915
1895
1878
1875
1863
1852
1861
1852
1851
1895
2006
2098
2348
2741
2742
2456
2165
1906
1668
1636
1725
1858
1912
1924
1919
1915
1928
1932
1936
1928
1944
1934
1942
1951
1966
1974
1950
1981
2000
2006
2011
2031
2032
2039
2065
2073
2090
2105
2127
2158
2175
2183
2211
2227
2251
2260
2283
2304
2319
2315
2314
2298
2282
2250
2212
2188
2156
2117
2079
2072
2042
2019
2002
1981
1958
1973
1970
1973
1959
1964
1969
1955
1965
1969
1963
1963
1970
1979
1971
1977
1988
1986
1979
1989
1982
1979
1970
1966
1973
1973
1976
1980
1975
1981
1962
1957
1969
1964
1969
1987
2020
2045
2055
2053
2065
2102
2133
2117
2119
2105
2075
2058
2035
2014
1997
1987
1973
1933
1917
1926
1925
1920
1922
1930
1965
2082
2175
2365
2768
2811
2533
2262
2012
1766
1704
1798
1909
1977
2000
2002
1997
2004
2016
2020
2012
2019
2008
2023
2028
2021
2022
2032
2039
2055
2070
2068
2076
2082
2093
2098
2119
2131
2144
2169
2180
2201
2218
2246
2277
2289
2314
2329
2341
2352
2346
2360
2341
2317
2286
2257
2221
2185
2137
2104
2082
2062
2042
2012
2005
1995
1966
1958
1981
1963
1968
1962
1961
1964
1958
1957
1954
1938
1954
1962
1957
1963
1971
1961
1956
1961
1960
1963
1960
1945
1970
1975
1968
1955
1960
1968
1955
1958
1961
1956
1955
1988
2009
2014
2034
2035
2045
2088
2111
2102
2091
2080
2064
2040
2026
2004
1987
1965
1920
1914
1907
1897
1902
1886
1908
1912
1973
2097
2187
2451
2800
2706
2424
2138
1887
1679
1682
1775
1880
1938
1957
1946
1944
1953
1958
1965
1960
1964
1962
1965
1959
1973
1983
1975
1979
1997
2018
2031
2035
2037
2069
2081
2104
2099
2120
2140
2158
2176
2190
2222
2246
2258
2281
2295
2308
2307
2334
2336
2320
2290
2255
2225
2186
2151
2123
2104
2062
2035
2023
2002
1982
1974
1960
1972
1961
1953
1968
1975
1971
1966
1964
1961
1972
1954
1965
1968
1972
1966
1962
1962
1966
1970
1951
1959
1954
1951
1951
1944
1952
1953
1957
1948
1948
1947
1941
1941
1941
1939
1944
1980
1995
2010
2024
2024
2037
2068
2104
2102
2113
2099
2064
2032
2016
2005
2001
1979
1951
1899
1908
1912
1901
1909
1915
1919
1966
2083
2160
2391
2773
2774
2477
2185
1949
1716
1673
1773
1880
1938
1940
1935
1954
1956
1956
1956
1953
1973
1970
1965
1988
1989
1984
1988
2005
2005
2009
2016
2036
2048
2066
2080
2082
2098
2124
2143
2155
2170
2168
2213
2252
2260
2264
2278
2295
2314
2317
2316
2304
2291
2255
2214
2197
2162
2132
2085
2053
2043
2028
1998
1983
1972
1960
1964
1975
1970
1964
1962
1960
1964
1963
1963
1965
1953
1966
1973
1979
1975
1980
1970
1966
1982
1965
1964
1971
1966
1975
1971
1966
1963
1946
1951
1958
1964
1958
1956
1959
1969
1997
2007
2021
2044
2043
2049
2080
2115
2123
2110
2092
2066
2054
2026
1993
1983
1976
1951
1934
1934
1932
1930
1929
1936
1936
1969
2070
2170
2322
2680
2799
2535
2278
2055
1811
1713
1784
1898
1964
1975
1991
1989
1982
1996
1987
1988
1996
1992
1994
1990
1995
2009
2017
2026
2027
2028
2044
2049
2065
2051
2067
2095
2115
2128
2136
2154
2181
2190
2210
2238
2257
2271
2286
2302
2306
2315
2326
2323
2298
2268
2238
2213
2197
2160
2130
2100
2076
2038
2026
2017
2002
1985
1985
1990
1983
1968
1986
1977
1980
1986
1997
1978
1987
2001
1999
2006
2009
1998
1993
1999
2001
2007
1987
1991
1993
1992
1996
1990
1996
1997
1999
1987
1972
1981
1976
2009
2038
2064
2066
2074
2087
2116
2137
2136
2126
2108
2080
2057
2036
2034
2013
1986
1952
1930
1941
1949
1952
1957
1947
1940
2011
2114
2192
2389
2714
2723
2455
2232
2034
1776
1722
1789
1913
1975
1988
1987
1994
1985
1986
1992
2002
1993
2000
2017
2028
2027
2037
2037
2039
2049
2055
2063
2076
2098
2092
2091
2107
2139
2155
2160
2174
2190
2201
2218
2226
2245
2266
2268
2287
2308
2312
2294
2282
2276
2247
2212
2191
2156
2124
2103
2065
2042
2038
2005
2011
2000
1996
1990
1982
1980
1974
1968
1965
1975
1965
1964
1975
1977
1976
1976
1976
1972
1964
1970
1965
1958
1969
1997
1989
1980
1983
1984
1977
1969
1979
1975
1983
1966
1974
1987
2017
2021
2041
2052
2038
2059
2107
2123
2118
2109
2089
2063
2030
2004
2001
1998
1986
1957
1933
1935
1938
1943
1941
1943
1953
2049
2152
2269
2584
2826
2607
2370
2164
1970
1751
1737
1823
1931
1953
1966
1990
2000
1986
1978
1986
1975
1988
1985
1976
1998
1994
1990
1997
2017
2028
2027
2040
2054
2049
2068
2082
2091
2098
2109
2135
2155
2173
2193
2191
2218
2246
2261
2278
2283
2306
2299
2304
2280
2245
2238
2206
2172
2149
2126
2094
2066
2032
2025
2019
2006
1995
2004
1987
1985
1997
2003
1991
2001
1986
1998
1998
2005
2007
2008
2010
2013
2008
2019
2026
2018
2013
2004
2014
2018
2014
2012
2006
2006
1993
1995
2012
2016
2005
2015
2041
2054
2073
2087
2085
2099
2145
2162
2152
2148
2126
2099
2080
2044
2036
2037
2033
1991
1977
1973
1982
1985
1957
1978
2002
2085
2195
2290
2575
2909
2710
2434
2167
1970
1776
1791
1887
1988
2028
2022
2014
2022
2044
2055
2025
2043
2060
2054
2046
2055
2068
2075
2090
2094
2102
2105
2104
2118
2123
2152
2147
2156
2171
2190
2209
2226
2240
2249
2277
2300
2314
2319
2334
2342
2347
2351
2350
2329
2308
2287
2247
2212
2173
2136
2106
2089
2058
2044
2028
2019
2007
2010
1995
1977
2002
2002
2004
1998
2003
2009
2005
1999
2000
2008
1994
1998
2008
2011
1994
2003
2014
2014
2010
2003
1999
1998
2012
1992
1987
1986
1999
2008
2009
2009
2024
2026
2065
2076
2080
2086
2108
2141
2144
2138
2132
2105
2080
2063
2045
2034
2013
1998
1977
1974
1964
1962
1969
1964
1967
1994
2093
2183
2289
2578
2845
2625
2382
2154
1930
1759
1783
1882
1957
2010
2024
2022
2014
2019
2021
2033
2019
2025
2036
2031
2039
2049
2058
2066
2077
2074
2077
2087
2090
2109
2117
2113
2140
2154
2184
2194
2215
2223
2249
2272
2283
2295
2317
2331
2336
2345
2346
2333
2318
2293
2264
2236
2202
2159
2122
2106
2086
2051
2032
2010
2008
1992
1996
1993
1990
1989
1981
2003
2004
1997
2001
2005
2006
1988
2012
2013
2007
1991
2008
2007
2008
1999
2002
2021
2013
2008
2019
2004
1999
1997
2002
2004
2007
2012
2007
2012
2026
2062
2087
2102
2103
2099
2129
2139
2131
2144
2116
2072
2047
2025
2006
1993
1983
1962
1944
1937
1931
1938
1949
1943
1952
2037
2138
2218
2501
2814
2670
2412
2190
1960
1730
1738
1838
1928
1960
1974
1989
1984
1981
1981
1982
1984
1985
1995
2000
2004
2002
2005
2021
2029
2026
2036
2048
2053
2072
2082
2099
2106
2117
2125
2145
2160
2174
2192
2204
2233
2260
2281
2296
2307
2312
2316
2309
2294
2271
2248
2222
2193
2153
2124
2063
2056
2052
2026
2008
2002
1991
1980
1981
1994
1987
1973
1968
1988
1993
1984
1987
1970
1968
1969
1972
1971
1972
1974
1974
1978
1967
1963
1972
1985
1992
1991
1984
1978
1977
1973
1985
1975
1975
2008
2025
2040
2048
2053
2048
2084
2108
2098
2102
2096
2068
2043
2029
2014
1997
1983
1949
1924
1931
1931
1933
1929
1934
1936
1972
2098
2195
2393
2764
2782
2502
2250
2030
1782
1700
1785
1898
1962
1987
1990
1989
1996
1986
1996
1989
1999
1994
2014
2026
2032
2031
2028
2038
2055
2065
2070
2059
2064
2094
2112
2122
2132
2158
2163
2184
2201
2226
2240
2259
2269
2279
2280
2300
2325
2316
2316
2316
2302
2273
2244
2198
2171
2138
2113
2086
2063
2037
2016
2000
1996
1984
1985
1970
1973
1961
1982
1987
1974
1984
1971
1963
1971
1974
1976
1983
1970
1968
1978
1983
1976
1978
1962
1974
1963
1965
1984
1978
1964
1960
1965
1976
1960
1964
1978
1990
2012
2037
2036
2051
2066
2100
2113
2120
2118
2085
2048
2034
2011
2013
1997
1988
1954
1939
1933
1923
1937
1937
1927
1935
1979
2100
2182
2382
2724
2731
2469
2214
1995
1766
1713
1793
1902
1966
1976
1979
1973
1969
1978
1990
1998
1985
1998
2016
2008
2018
2032
2032
2032
2044
2054
2051
2073
2091
2102
2108
2122
2123
2111
2146
2185
2214
2221
2244
2262
2272
2291
2312
2329
2343
2349
2326
2324
2311
2284
2248
2216
2186
2150
2117
2081
2066
2050
2029
2023
2009
1996
1989
1995
2000
1992
1976
1972
1980
1968
1950
1961
1972
1974
1962
1980
2007
1994
1986
1994
1992
1998
1998
1999
1990
1994
1986
1988
1989
1985
1973
1969
1972
1975
1980
1992
1992
2013
2030
2047
2074
2071
2089
2117
2109
2112
2124
2090
2062
2034
2028
2020
2006
1988
1964
1947
1938
1950
1948
1947
1938
1970
2077
2184
2291
2603
2830
2597
2352
2130
1900
1710
1735
1858
1936
1992
2005
1993
1999
2002
2000
1998
2007
2007
2009
2017
2012
2015
2016
2013
2021
2016
2037
2041
2061
2071
2074
2072
2098
2114
2120
2136
2156
2168
2186
2210
2243
2251
2248
2279
2303
2306
2301
2302
2289
2274
2246
2210
2178
2150
2114
2075
2061
2023
2006
1999
1988
1979
1948
1967
1979
1982
1974
1962
1952
1968
1968
1965
1976
1970
1961
1962
1950
1956
1982
1984
1970
1977
1978
1969
1963
1971
1965
1971
1973
1987
1971
1966
1959
1951
1947
1963
1978
1984
1998
2003
2041
2053
2058
2052
2074
2123
2127
2120
2093
2081
2048
2041
2028
2014
1988
1985
1971
1963
1953
1949
1944
1952
1962
2001
2128
2230
2369
2706
2838
2562
2293
2049
1824
1713
1777
1892
1961
1985
2003
2006
2007
2003
2019
2025
2029
2025
2018
2011
2035
2037
2044
2042
2042
2055
2074
2085
2079
2099
2114
2121
2119
2132
2162
2177
2190
2214
2227
2238
2249
2261
2302
2321
2335
2339
2330
2314
2300
2278
2240
2205
2182
2148
2121
2089
2064
2030
2033
2016
2007
2010
2004
1985
1992
1991
1993
1988
1987
1996
1991
1996
1990
1988
1986
1993
1994
2010
2008
1993
2009
2027
2018
2001
2012
2010
2002
1999
1997
1987
1988
1979
1985
1975
1992
1986
1992
1990
1998
1994
1993
2003
2037
2053
2062
2063
2072
2074
2122
2136
2129
2125
2102
2068
2051
2040
2022
1998
1993
1967
1946
1935
1930
1924
1944
1958
1973
2074
2182
2264
2529
2830
2664
2383
2129
1890
1671
1694
1813
1928
1964
1962
1974
1969
1977
1973
1981
1986
1984
1976
1988
2003
2004
2001
2011
2017
2022
2028
2040
2053
2064
2075
2079
2080
2089
2113
2138
2158
2172
2188
2221
2249
2255
2261
2290
2296
2302
2317
2325
2323
2297
2274
2239
2209
2173
2135
2092
2059
2035
2031
2014
1991
1961
1955
1976
1974
1962
1967
1959
1962
1954
1959
1944
1945
1958
1961
1977
1985
1984
1986
1984
1967
1970
1971
1989
1983
1969
1972
1983
1965
1954
1953
1952
1957
1956
1953
1929
1938
1954
1947
1942
1960
1967
1990
1995
2010
2014
2032
2036
2052
2109
2126
2147
2118
2107
2088
2043
2014
2008
1989
1952
1932
1924
1926
1915
1913
1914
1917
1987
2119
2216
2380
2752
2879
2580
2237
1967
1715
1604
1689
1826
1922
1959
1956
1952
1959
1954
1955
1942
1985
2010
1989
2000
2008
2005
2014
2021
2019
2034
2038
2047
2065
2084
2090
2104
2114
2117
2127
2151
2175
2196
2231
2254
2258
2281
2286
2313
2328
2349
2355
2333
2299
2266
2249
2220
2184
2121
2094
2081
2059
2038
2020
2007
1997
1972
1980
1984
1966
1967
1954
1952
1966
1969
1964
1967
1969
1968
1966
1985
1994
1980
1985
1997
1986
1981
1998
2003
1982
1983
1975
1969
1979
1972
1984
1974
1973
1963
1973
1974
1957
1953
1972
2011
2035
2051
2069
2063
2076
2130
2147
2122
2112
2088
2082
2055
2017
1997
1981
1981
1954
1927
1901
1906
1921
1934
1926
1970
2091
2253
2373
2694
3047
2830
2412
2004
1783
1617
1656
1779
1912
1988
2005
2010
2010
2009
2008
2011
2036
2033
2033
2063
2084
2095
2107
2118
2110
2118
2112
2127
2145
2157
2187
2197
2212
2240
2264
2285
2296
2322
2356
2364
2386
2408
2431
2454
2476
2492
2487
2459
2446
2432
2392
2369
2334
2300
2247
2220
2195
2197
2179
2139
2118
2118
2116
2106
2105
2126
2125
2116
2116
2116
2120
2126
2129
2129
2140
2154
2146
2172
2163
2164
2168
2163
2153
2159
2167
2174
2172
2165
2151
2146
2161
2153
2160
2153
2155
2144
2153
2188
2208
2232
2254
2262
2264
2293
2330
2339
2321
2305
2292
2244
2225
2212
2169
2166
2176
2152
2130
2110
2113
2102
2100
2096
2160
2313
2438
2624
2989
3054
2664
2203
1943
1799
1693
1788
1951
2068
2118
2119
2101
2127
2136
2135
2137
2152
2161
2162
2146
2162
2169
2167
2176
2173
2185
2199
2189
2206
2218
2208
2245
2243
2268
2307
2320
2338
2366
2367
2394
2407
2419
2429
2428
2437
2449
2438
2430
2400
2361
2315
2304
2276
2239
2197
2138
2138
2104
2079
2068
2080
2058
2041
2029
2044
2056
2043
2042
2022
2005
2026
2037
2021
2019
1993
2003
2000
2012
2005
1983
1985
1981
1949
1961
1960
1925
1944
1955
1921
1903
1908
1906
1906
1916
1900
1894
1884
1861
1892
1910
1900
1946
1944
1950
1965
1989
2011
1993
1974
1949
1932
1908
1904
1886
1878
1848
1831
1814
1799
1782
1786
1784
1754
1760
1914
2021
2181
2513
2624
2324
2054
1812
1626
1442
1490
1616
1722
1765
1792
1789
1788
1799
1797
1813
1823
1833
1838
1846
1848
1850
1867
1860
1905
1926
1904
1910
1933
1947
1960
1972
1962
2013
2014
2039
2057
2075
2100
2148
2161
2166
2206
2209
2225
2238
2235
2222
2212
2175
2136
2121
2094
2067
2027
2000
1956
1944
1920
1907
1879
1901
1896
1896
1891
1905
1907
1904
1883
1886
1913
1908
1931
1935
1934
1937
1951
1941
1956
1946
1933
1922
1919
1908
1897
1913
1937
1937
1937
1939
1941
1932
1954
1948
1940
1945
1953
1949
1936
1929
1972
1981
1994
1990
2006
1993
2020
2083
2078
2078
2048
2033
2001
1985
1962
1962
1953
1909
1886
1871
1855
1859
1870
1859
1891
1915
2029
2120
2261
2550
2670
2373
2121
1908
1729
1559
1606
1726
1848
1894
1909
1914
1940
1941
1922
1943
1938
1929
1942
1958
1948
1962
1969
1977
1972
1980
1988
1999
2012
2024
2026
2021
2050
2054
2080
2109
2122
2120
2152
2178
2207
2221
2243
2265
2286
2299
2316
2294
2280
2269
2232
2186
2156
2118
2111
2085
2055
2007
1996
2006
1979
1967
1982
1972
1972
1966
1960
1939
1978
1965
1965
1963
1942
1955
1971
1952
1959
1956
1956
1942
1950
1941
1946
1951
1949
1948
1955
1931
1924
1923
1930
1919
1930
1937
1937
1923
1928
1936
1924
1958
1998
2019
2016
2020
2035
2039
2082
2083
2082
2066
2057
2017
2003
1995
1968
1959
1929
1916
1906
1913
1890
1903
1909
1921
1968
2070
2148
2304
2612
2744
2473
2192
1976
1811
1657
1655
1768
1876
